-999	"MyLake model input for Vansjoen (Storefjorden); initial state, last modified 30.12.2005"												
Z (m)	Az (m2)	Tz (deg C)	Cz	Sz (kg/m3)	TPz (mg/m3)	DOPz (mg/m3)	Chlaz (mg/m3)	DOCz (mg/m3)	TPz_sed (mg/m3)	Chlaz_sed (mg/m3)	"Fvol_IM (m3/m3, dry w.)"	Hice (m)	Hsnow (m)
0	23800000	4	0	0.004	21	7	7	3000	756732	196747	0.92	0	0
0.5	22660800	4	0	0.004	21	7	7	3000	756732	196747	0.92		
1.5	20382500	4	0	0.004	21	7	7	3000	756732	196747	0.92		
2.5	18170000	4	0	0.004	21	7	7	3000	756732	196747	0.92		
3.5	16117500	4	0	0.004	21	7	7	3000	756732	196747	0.92		
4.5	14242500	4	0	0.004	21	7	7	3000	756732	196747	0.92		
5.5	12922500	4	0	0.004	21	7	7	3000	756732	196747	0.92		
6.5	11615000	4	0	0.004	21	7	7	3000	756732	196747	0.92		
7.5	10470000	4	0	0.004	21	7	7	3000	756732	196747	0.92		
8.5	9430000	4	0	0.004	21	7	7	3000	756732	196747	0.92		
9.5	8430000	4	0	0.004	21	7	7	3000	756732	196747	0.92		
10.5	7480000	4	0	0.004	21	7	7	3000	756732	196747	0.92		
11.5	6790000	4	0	0.004	21	7	7	3000	756732	196747	0.92		
12.5	6027500	4	0	0.004	21	7	7	3000	756732	196747	0.92		
13.5	5342500	4	0	0.004	21	7	7	3000	756732	196747	0.92
14.5	4750000	4	0	0.004	21	7	7	3000	756732	196747	0.92
15.5	4155000	4	0	0.004	21	7	7	3000	756732	196747	0.92
16.5	3630000	4	0	0.004	21	7	7	3000	756732	196747	0.92
17.5	3220000	4	0	0.004	21	7	7	3000	756732	196747	0.92
18.5	2837500	4	0	0.004	21	7	7	3000	756732	196747	0.92
19.5	2460000	4	0	0.004	21	7	7	3000	756732	196747	0.92
20.5	2172500	4	0	0.004	21	7	7	3000	756732	196747	0.92
21.5	1897500	4	0	0.004	21	7	7	3000	756732	196747	0.92
22.5	1652500	4	0	0.004	21	7	7	3000	756732	196747	0.92
23.5	1475000	4	0	0.004	21	7	7	3000	756732	196747	0.92
24.5	1267500	4	0	0.004	21	7	7	3000	756732	196747	0.92
25.5	1107500	4	0	0.004	21	7	7	3000	756732	196747	0.92
26.5	957500	4	0	0.004	21	7	7	3000	756732	196747	0.92
27.5	817500	4	0	0.004	21	7	7	3000	756732	196747	0.92
28.5	685000	4	0	0.004	21	7	7	3000	756732	196747	0.92
29.5	572500	4	0	0.004	21	7	7	3000	756732	196747	0.92
30.5	475000	4	0	0.004	21	7	7	3000	756732	196747	0.92
31.5	405000	4	0	0.004	21	7	7	3000	756732	196747	0.92
32.5	327500	4	0	0.004	21	7	7	3000	756732	196747	0.92
33.5	267500	4	0	0.004	21	7	7	3000	756732	196747	0.92
34.5	202500	4	0	0.004	21	7	7	3000	756732	196747	0.92
35.5	150000	4	0	0.004	21	7	7	3000	756732	196747	0.92
36.5	102500	4	0	0.004	21	7	7	3000	756732	196747	0.92
37.5	67500	4	0	0.004	21	7	7	3000	756732	196747	0.92
38.5	27500	4	0	0.004	21	7	7	3000	756732	196747	0.92
39.5	17500	4	0	0.004	21	7	7	3000	756732	196747	0.92
40.5	2500	4	0	0.004	21	7	7	3000	756732	196747	0.92
41	0	4	0	0.004	21	7	7	3000	756732	196747	0.92